#framerate:	25.00

#Frame 	 Voronoi density(m^(-2))		velocity(m/s)
00000	1.412	0.670
00001	1.388	0.659
00002	1.375	0.634
00003	1.397	0.568
00004	1.419	0.562
00005	1.439	0.549
00006	1.476	0.565
00007	1.512	0.564
00008	1.539	0.554
00009	1.585	0.551
00010	1.605	0.539
00011	1.645	0.529
00012	1.680	0.543
00013	1.703	0.560
00014	1.732	0.650
00015	1.756	0.652
00016	1.771	0.590
00017	1.793	0.582
00018	1.803	0.578
00019	1.819	0.577
00020	1.830	0.570
00021	1.848	0.568
00022	1.858	0.559
00023	1.877	0.562
00024	1.896	0.534
00025	1.905	0.528
00026	1.927	0.523
00027	1.941	0.466
00028	1.969	0.476
00029	1.991	0.469
00030	2.018	0.482
00031	2.046	0.505
00032	2.057	0.546
00033	2.077	0.541
00034	2.084	0.526
00035	2.096	0.508
00036	2.098	0.489
00037	2.088	0.456
00038	2.082	0.440
00039	2.070	0.420
00040	2.085	0.400
00041	2.106	0.377
00042	2.134	0.366
00043	2.157	0.349
00044	2.177	0.347
00045	2.186	0.346
00046	2.212	0.365
00047	2.245	0.368
00048	2.259	0.350
00049	2.285	0.344
00050	2.305	0.339
00051	2.332	0.335
00052	2.355	0.330
00053	2.378	0.327
00054	2.399	0.329
00055	2.410	0.330
00056	2.438	0.312
00057	2.454	0.300
00058	2.480	0.306
00059	2.509	0.301
00060	2.508	0.312
00061	2.536	0.304
00062	2.544	0.301
00063	2.565	0.302
00064	2.567	0.297
00065	2.592	0.300
00066	2.608	0.297
00067	2.622	0.291
00068	2.634	0.286
00069	2.656	0.330
00070	2.666	0.313
00071	2.680	0.323
00072	2.714	0.378
00073	2.726	0.367
00074	2.760	0.360
00075	2.791	0.343
00076	2.793	0.337
00077	2.818	0.335
00078	2.833	0.338
00079	2.858	0.334
00080	2.878	0.329
00081	2.889	0.323
00082	2.907	0.320
00083	2.917	0.315
00084	2.933	0.312
00085	2.948	0.321
00086	2.950	0.315
00087	2.971	0.322
00088	2.992	0.318
00089	2.992	0.321
00090	2.996	0.323
00091	3.001	0.319
00092	2.997	0.312
00093	2.993	0.315
00094	3.001	0.306
00095	2.991	0.300
00096	3.002	0.288
00097	3.018	0.283
00098	3.029	0.291
00099	3.042	0.295
00100	3.066	0.289
00101	3.074	0.247
00102	3.100	0.258
00103	3.123	0.277
00104	3.135	0.271
00105	3.154	0.257
00106	3.183	0.258
00107	3.205	0.248
00108	3.231	0.243
00109	3.248	0.239
00110	3.275	0.238
00111	3.299	0.237
00112	3.340	0.235
00113	3.369	0.229
00114	3.388	0.230
00115	3.425	0.228
00116	3.460	0.228
00117	3.489	0.224
00118	3.502	0.224
00119	3.540	0.222
00120	3.556	0.236
00121	3.575	0.239
00122	3.585	0.236
00123	3.608	0.229
00124	3.609	0.250
00125	3.631	0.249
00126	3.645	0.240
00127	3.672	0.239
00128	3.709	0.242
00129	3.722	0.236
00130	3.736	0.233
00131	3.766	0.229
00132	3.783	0.223
00133	3.803	0.222
00134	3.828	0.213
00135	3.833	0.211
00136	3.851	0.211
00137	3.861	0.211
00138	3.890	0.199
00139	3.906	0.200
00140	3.928	0.197
00141	3.940	0.194
00142	3.948	0.202
00143	3.969	0.199
00144	3.987	0.201
00145	4.003	0.197
00146	4.003	0.196
00147	4.022	0.189
00148	4.037	0.192
00149	4.044	0.190
00150	4.060	0.188
00151	4.063	0.186
00152	4.071	0.179
00153	4.087	0.180
00154	4.092	0.175
00155	4.099	0.172
00156	4.122	0.176
00157	4.145	0.184
00158	4.128	0.186
00159	4.119	0.181
00160	4.130	0.184
00161	4.106	0.187
00162	4.121	0.193
00163	4.098	0.196
00164	4.108	0.208
00165	4.101	0.211
00166	4.082	0.230
00167	4.079	0.238
00168	4.071	0.239
00169	4.047	0.242
00170	4.040	0.191
00171	4.039	0.190
00172	4.034	0.198
00173	4.026	0.192
00174	4.032	0.184
00175	4.045	0.195
00176	4.060	0.183
00177	4.068	0.177
00178	4.093	0.176
00179	4.099	0.177
00180	4.105	0.177
00181	4.131	0.171
00182	4.142	0.167
00183	4.150	0.168
00184	4.169	0.168
00185	4.176	0.162
00186	4.180	0.171
00187	4.185	0.172
00188	4.201	0.167
00189	4.214	0.163
00190	4.218	0.163
00191	4.237	0.165
00192	4.235	0.154
00193	4.249	0.153
00194	4.256	0.154
00195	4.273	0.153
00196	4.268	0.153
00197	4.282	0.147
00198	4.286	0.147
00199	4.291	0.143
00200	4.309	0.145
00201	4.339	0.137
00202	4.324	0.142
00203	4.345	0.144
00204	4.349	0.143
00205	4.375	0.140
00206	4.382	0.145
00207	4.397	0.145
00208	4.413	0.150
00209	4.424	0.154
00210	4.431	0.150
00211	4.450	0.158
00212	4.465	0.147
00213	4.483	0.145
00214	4.493	0.149
00215	4.483	0.147
00216	4.491	0.142
00217	4.488	0.145
00218	4.528	0.148
00219	4.518	0.144
00220	4.527	0.151
00221	4.536	0.150
00222	4.551	0.149
00223	4.572	0.147
00224	4.572	0.146
00225	4.586	0.142
00226	4.597	0.150
00227	4.604	0.142
00228	4.624	0.146
00229	4.631	0.143
00230	4.635	0.149
00231	4.669	0.141
00232	4.664	0.148
00233	4.692	0.138
00234	4.693	0.140
00235	4.708	0.139
00236	4.748	0.137
00237	4.753	0.138
00238	4.758	0.139
00239	4.769	0.148
00240	4.766	0.138
00241	4.766	0.145
00242	4.787	0.138
00243	4.794	0.149
00244	4.812	0.140
00245	4.832	0.142
00246	4.836	0.137
00247	4.842	0.137
00248	4.873	0.138
00249	4.870	0.126
00250	4.884	0.135
00251	4.895	0.131
00252	4.904	0.131
00253	4.912	0.134
00254	4.911	0.132
00255	4.910	0.129
00256	4.938	0.145
00257	4.931	0.136
00258	4.953	0.136
00259	4.953	0.141
00260	4.969	0.141
00261	4.949	0.137
00262	4.971	0.137
00263	4.986	0.131
00264	4.964	0.133
00265	4.953	0.131
00266	4.974	0.120
00267	4.981	0.124
00268	4.993	0.115
00269	5.006	0.121
00270	5.019	0.113
00271	5.033	0.113
00272	5.037	0.111
00273	5.054	0.114
00274	5.082	0.120
00275	5.070	0.122
00276	5.057	0.119
00277	5.076	0.118
00278	5.077	0.125
00279	5.105	0.117
00280	5.086	0.121
00281	5.109	0.117
00282	5.118	0.114
00283	5.136	0.119
00284	5.153	0.109
00285	5.143	0.107
00286	5.148	0.105
00287	5.175	0.110
00288	5.166	0.103
00289	5.152	0.104
00290	5.162	0.099
00291	5.156	0.109
00292	5.168	0.117
00293	5.168	0.127
00294	5.188	0.141
00295	5.164	0.145
00296	5.200	0.159
00297	5.166	0.164
00298	5.137	0.112
00299	5.129	0.113
00300	5.117	0.117
00301	5.110	0.119
00302	5.072	0.124
00303	5.072	0.127
00304	5.045	0.125
00305	5.073	0.117
00306	5.062	0.125
00307	5.084	0.116
00308	5.069	0.115
00309	5.092	0.118
00310	5.091	0.111
00311	5.104	0.115
00312	5.105	0.110
00313	5.115	0.113
00314	5.147	0.110
00315	5.129	0.107
00316	5.153	0.102
00317	5.141	0.109
00318	5.173	0.107
00319	5.175	0.105
00320	5.192	0.105
00321	5.191	0.103
00322	5.208	0.102
00323	5.244	0.100
00324	5.222	0.099
00325	5.239	0.099
00326	5.247	0.096
00327	5.259	0.097
00328	5.251	0.096
00329	5.266	0.095
00330	5.286	0.094
00331	5.281	0.086
00332	5.276	0.092
00333	5.308	0.090
00334	5.299	0.087
00335	5.289	0.098
00336	5.285	0.086
00337	5.290	0.086
00338	5.315	0.091
00339	5.284	0.087
00340	5.317	0.088
00341	5.312	0.092
00342	5.311	0.088
00343	5.307	0.088
00344	5.294	0.093
00345	5.324	0.083
00346	5.329	0.094
00347	5.322	0.095
00348	5.328	0.092
00349	5.315	0.099
00350	5.323	0.103
00351	5.310	0.106
00352	5.301	0.114
00353	5.320	0.121
00354	5.269	0.097
00355	5.259	0.100
00356	5.261	0.101
00357	5.207	0.108
00358	5.222	0.120
00359	5.197	0.111
00360	5.168	0.119
00361	5.178	0.119
00362	5.167	0.118
00363	5.173	0.115
00364	5.159	0.118
00365	5.169	0.115
00366	5.150	0.116
00367	5.154	0.115
00368	5.176	0.109
00369	5.160	0.120
00370	5.177	0.110
00371	5.166	0.118
00372	5.163	0.118
00373	5.135	0.115
00374	5.139	0.114
00375	5.147	0.120
00376	5.123	0.110
00377	5.132	0.117
00378	5.159	0.115
00379	5.148	0.115
00380	5.155	0.123
00381	5.178	0.115
00382	5.171	0.119
00383	5.162	0.120
00384	5.181	0.125
00385	5.172	0.117
00386	5.195	0.125
00387	5.206	0.119
00388	5.184	0.124
00389	5.200	0.114
00390	5.228	0.117
00391	5.238	0.116
00392	5.223	0.107
00393	5.248	0.110
00394	5.262	0.097
00395	5.280	0.104
00396	5.261	0.095
00397	5.270	0.101
00398	5.277	0.095
00399	5.280	0.100
00400	5.298	0.085
00401	5.319	0.090
00402	5.307	0.098
00403	5.338	0.089
00404	5.322	0.088
00405	5.330	0.091
00406	5.323	0.087
00407	5.326	0.089
00408	5.340	0.090
00409	5.335	0.094
00410	5.311	0.097
00411	5.303	0.099
00412	5.306	0.106
00413	5.302	0.110
00414	5.279	0.112
00415	5.248	0.109
00416	5.249	0.107
00417	5.227	0.108
00418	5.244	0.112
00419	5.229	0.117
00420	5.235	0.126
00421	5.230	0.131
00422	5.221	0.133
00423	5.217	0.141
00424	5.195	0.146
00425	5.192	0.149
00426	5.173	0.145
00427	5.135	0.144
00428	5.145	0.141
00429	5.116	0.140
00430	5.110	0.144
00431	5.100	0.145
00432	5.068	0.148
00433	5.061	0.156
00434	5.038	0.158
00435	5.028	0.152
00436	5.019	0.126
00437	5.024	0.124
00438	4.999	0.121
00439	4.983	0.116
00440	4.988	0.117
00441	4.997	0.111
00442	4.976	0.111
00443	4.961	0.112
00444	4.996	0.110
00445	4.974	0.118
00446	5.020	0.120
00447	5.021	0.117
00448	4.985	0.126
00449	4.985	0.089
00450	4.947	0.091
00451	4.946	0.101
00452	4.935	0.106
00453	4.901	0.117
00454	4.888	0.120
00455	4.835	0.130
00456	4.822	0.129
00457	4.794	0.136
00458	4.763	0.142
00459	4.774	0.138
00460	4.791	0.151
00461	4.798	0.141
00462	4.801	0.149
00463	4.798	0.146
00464	4.803	0.148
00465	4.825	0.144
00466	4.825	0.145
00467	4.840	0.150
00468	4.853	0.149
00469	4.862	0.156
00470	4.852	0.144
00471	4.833	0.149
00472	4.843	0.147
00473	4.851	0.143
00474	4.842	0.150
00475	4.838	0.143
00476	4.826	0.137
00477	4.823	0.133
00478	4.801	0.123
00479	4.850	0.123
00480	4.812	0.119
00481	4.824	0.114
00482	4.821	0.105
00483	4.814	0.099
00484	4.797	0.090
00485	4.783	0.092
00486	4.793	0.097
00487	4.753	0.096
00488	4.745	0.108
00489	4.737	0.098
00490	4.738	0.103
00491	4.692	0.112
00492	4.676	0.118
00493	4.682	0.122
00494	4.645	0.129
00495	4.615	0.126
00496	4.543	0.110
00497	4.531	0.109
00498	4.485	0.109
00499	4.460	0.111
00500	4.460	0.117
00501	4.468	0.110
00502	4.443	0.112
00503	4.441	0.114
00504	4.433	0.109
00505	4.439	0.110
00506	4.446	0.108
00507	4.437	0.114
00508	4.448	0.108
00509	4.419	0.115
00510	4.419	0.120
00511	4.391	0.132
00512	4.402	0.130
00513	4.371	0.132
00514	4.363	0.143
00515	4.362	0.152
00516	4.361	0.149
00517	4.340	0.157
00518	4.323	0.155
00519	4.309	0.152
00520	4.300	0.138
00521	4.271	0.140
00522	4.264	0.134
00523	4.239	0.144
00524	4.221	0.140
00525	4.236	0.143
00526	4.238	0.140
00527	4.227	0.132
00528	4.227	0.138
00529	4.237	0.131
00530	4.202	0.127
00531	4.200	0.120
00532	4.209	0.124
00533	4.214	0.118
00534	4.220	0.114
00535	4.198	0.101
00536	4.200	0.117
00537	4.177	0.105
00538	4.191	0.111
00539	4.168	0.117
00540	4.161	0.118
00541	4.161	0.117
00542	4.158	0.121
00543	4.145	0.120
00544	4.146	0.118
00545	4.115	0.124
00546	4.133	0.116
00547	4.105	0.125
00548	4.121	0.124
00549	4.114	0.118
00550	4.131	0.117
00551	4.108	0.126
00552	4.141	0.129
00553	4.129	0.120
00554	4.103	0.127
00555	4.133	0.129
00556	4.102	0.135
00557	4.095	0.134
00558	4.090	0.100
00559	4.056	0.105
00560	4.035	0.103
00561	4.026	0.104
00562	3.988	0.101
00563	3.931	0.108
00564	3.928	0.107
00565	3.901	0.108
00566	3.867	0.110
00567	3.849	0.111
00568	3.863	0.109
00569	3.828	0.105
00570	3.822	0.105
00571	3.797	0.101
00572	3.827	0.091
00573	3.800	0.093
00574	3.799	0.087
00575	3.765	0.084
00576	3.729	0.083
00577	3.719	0.080
00578	3.702	0.080
00579	3.700	0.084
00580	3.632	0.084
00581	3.634	0.092
00582	3.611	0.102
00583	3.586	0.092
00584	3.538	0.098
00585	3.529	0.098
00586	3.557	0.098
00587	3.534	0.102
00588	3.515	0.101
00589	3.524	0.092
00590	3.534	0.098
00591	3.521	0.100
00592	3.519	0.101
00593	3.537	0.106
00594	3.520	0.114
00595	3.555	0.114
00596	3.526	0.130
00597	3.526	0.134
00598	3.525	0.133
00599	3.565	0.146
00600	3.546	0.141
00601	3.595	0.101
00602	3.568	0.104
00603	3.580	0.107
00604	3.569	0.116
00605	3.622	0.108
00606	3.564	0.112
00607	3.572	0.114
00608	3.601	0.116
00609	3.601	0.123
00610	3.598	0.131
00611	3.567	0.133
00612	3.552	0.142
00613	3.534	0.151
00614	3.534	0.145
00615	3.525	0.151
00616	3.503	0.150
00617	3.490	0.150
00618	3.489	0.140
00619	3.509	0.143
00620	3.508	0.144
00621	3.497	0.146
00622	3.492	0.143
00623	3.514	0.141
00624	3.540	0.137
00625	3.496	0.105
00626	3.502	0.104
00627	3.509	0.103
00628	3.529	0.101
00629	3.511	0.101
00630	3.492	0.088
00631	3.498	0.094
00632	3.523	0.100
00633	3.522	0.097
00634	3.544	0.112
00635	3.551	0.111
00636	3.524	0.112
00637	3.566	0.114
00638	3.577	0.119
00639	3.563	0.117
00640	3.594	0.120
00641	3.593	0.090
00642	3.582	0.097
00643	3.589	0.093
00644	3.605	0.088
00645	3.606	0.096
00646	3.609	0.098
00647	3.620	0.101
00648	3.608	0.102
00649	3.606	0.108
00650	3.604	0.116
00651	3.582	0.112
00652	3.574	0.117
00653	3.586	0.125
00654	3.559	0.130
00655	3.533	0.129
00656	3.548	0.138
00657	3.539	0.139
00658	3.493	0.140
00659	3.503	0.141
00660	3.466	0.147
00661	3.468	0.147
00662	3.449	0.146
00663	3.428	0.136
00664	3.417	0.132
00665	3.410	0.119
00666	3.391	0.114
00667	3.393	0.109
00668	3.376	0.108
00669	3.415	0.126
00670	3.432	0.135
00671	3.430	0.157
00672	3.448	0.165
00673	3.426	0.181
00674	3.462	0.178
00675	3.412	0.189
00676	3.404	0.190
00677	3.408	0.195
00678	3.426	0.198
00679	3.439	0.205
00680	3.417	0.198
00681	3.425	0.197
00682	3.389	0.185
00683	3.402	0.175
00684	3.373	0.181
00685	3.339	0.175
00686	3.321	0.160
00687	3.339	0.129
00688	3.315	0.123
00689	3.319	0.115
00690	3.295	0.127
00691	3.293	0.118
00692	3.292	0.115
00693	3.254	0.120
00694	3.264	0.113
00695	3.286	0.115
00696	3.269	0.118
00697	3.266	0.108
00698	3.286	0.110
00699	3.277	0.106
00700	3.294	0.099
00701	3.288	0.110
00702	3.299	0.101
00703	3.312	0.093
00704	3.304	0.103
00705	3.310	0.103
00706	3.317	0.100
00707	3.327	0.108
00708	3.314	0.109
00709	3.307	0.110
00710	3.293	0.115
00711	3.297	0.112
00712	3.251	0.117
00713	3.237	0.117
00714	3.245	0.113
00715	3.256	0.123
00716	3.227	0.131
00717	3.231	0.128
00718	3.214	0.136
00719	3.244	0.141
00720	3.236	0.147
00721	3.217	0.144
00722	3.226	0.151
00723	3.203	0.151
00724	3.198	0.153
00725	3.195	0.124
00726	3.205	0.118
00727	3.208	0.128
00728	3.215	0.119
00729	3.198	0.127
00730	3.204	0.125
00731	3.201	0.131
00732	3.177	0.129
00733	3.176	0.131
00734	3.142	0.131
00735	3.135	0.131
00736	3.101	0.135
00737	3.092	0.135
00738	3.070	0.141
00739	3.061	0.141
00740	3.034	0.139
00741	3.024	0.139
00742	3.000	0.145
00743	2.987	0.134
00744	2.967	0.141
00745	2.934	0.138
00746	2.918	0.142
00747	2.896	0.136
00748	2.898	0.141
00749	2.878	0.134
00750	2.870	0.139
00751	2.850	0.138
00752	2.840	0.132
00753	2.817	0.134
00754	2.800	0.135
00755	2.778	0.145
00756	2.754	0.136
00757	2.751	0.149
00758	2.722	0.140
00759	2.702	0.151
00760	2.676	0.145
00761	2.673	0.150
00762	2.630	0.154
00763	2.629	0.166
00764	2.588	0.167
00765	2.570	0.164
00766	2.528	0.164
00767	2.508	0.154
00768	2.457	0.162
00769	2.442	0.161
00770	2.399	0.163
00771	2.398	0.158
00772	2.368	0.126
00773	2.353	0.119
00774	2.321	0.125
00775	2.310	0.124
00776	2.274	0.124
00777	2.271	0.129
00778	2.245	0.121
00779	2.235	0.115
00780	2.211	0.121
00781	2.196	0.118
00782	2.170	0.123
00783	2.164	0.119
00784	2.162	0.126
00785	2.153	0.125
00786	2.144	0.134
00787	2.114	0.124
00788	2.110	0.134
00789	2.090	0.091
00790	2.076	0.094
00791	2.043	0.090
00792	2.042	0.084
00793	2.025	0.095
00794	2.011	0.086
00795	1.998	0.091
00796	1.980	0.080
00797	1.963	0.088
00798	1.973	0.092
00799	1.933	0.104
00800	1.932	0.111
00801	1.928	0.114
00802	1.874	0.124
00803	1.835	0.132
00804	1.888	0.136
00805	1.835	0.138
00806	1.823	0.142
00807	1.864	0.146
00808	1.851	0.144
00809	1.925	0.138
00810	1.981	0.147
00811	1.967	0.155
00812	2.023	0.152
00813	2.064	0.152
00814	2.001	0.147
00815	2.063	0.149
00816	2.035	0.147
00817	2.054	0.146
00818	2.064	0.141
00819	2.059	0.150
00820	2.099	0.146
00821	2.062	0.142
00822	2.080	0.136
00823	2.069	0.137
00824	2.087	0.126
00825	2.079	0.126
00826	2.084	0.128
00827	2.096	0.120
00828	2.083	0.127
00829	2.120	0.125
00830	2.109	0.127
00831	2.124	0.124
00832	2.120	0.114
00833	2.147	0.126
00834	2.138	0.136
00835	2.149	0.141
00836	2.134	0.152
00837	2.150	0.159
00838	2.117	0.153
00839	2.111	0.098
00840	2.090	0.090
00841	2.091	0.094
00842	2.093	0.093
00843	2.097	0.090
00844	2.097	0.100
00845	2.083	0.102
00846	2.087	0.119
00847	2.085	0.118
00848	2.084	0.136
00849	2.058	0.135
00850	2.060	0.145
00851	2.084	0.136
00852	2.061	0.145
00853	2.049	0.142
00854	1.995	0.146
00855	2.050	0.141
00856	1.991	0.141
00857	1.985	0.151
00858	1.935	0.142
00859	1.901	0.154
00860	1.862	0.151
00861	1.833	0.155
00862	1.825	0.163
00863	1.799	0.149
00864	1.773	0.162
00865	1.766	0.175
00866	1.769	0.175
00867	1.761	0.188
00868	1.760	0.190
00869	1.753	0.196
00870	1.745	0.200
00871	1.738	0.211
00872	1.726	0.208
00873	1.723	0.225
00874	1.711	0.226
00875	1.698	0.222
00876	1.682	0.172
00877	1.664	0.165
00878	1.642	0.172
00879	1.612	0.155
00880	1.600	0.167
00881	1.565	0.169
00882	1.544	0.171
00883	1.523	0.177
00884	1.496	0.171
00885	1.482	0.189
00886	1.443	0.184
00887	1.419	0.187
00888	1.395	0.193
00889	1.384	0.196
00890	1.346	0.189
00891	1.341	0.184
00892	1.302	0.185
00893	1.283	0.185
00894	1.263	0.202
00895	1.250	0.188
00896	1.239	0.193
00897	1.265	0.205
00898	1.275	0.197
00899	1.266	0.202
00900	1.280	0.212
00901	1.281	0.213
00902	1.261	0.222
00903	1.273	0.213
00904	1.239	0.209
00905	1.233	0.166
00906	1.221	0.174
00907	1.205	0.159
00908	1.207	0.169
00909	1.188	0.164
00910	1.190	0.169
00911	1.165	0.159
00912	1.167	0.157
00913	1.145	0.160
00914	1.157	0.146
00915	1.130	0.150
00916	1.133	0.136
00917	1.125	0.139
00918	1.128	0.118
00919	1.115	0.113
00920	1.124	0.098
00921	1.120	0.103
00922	1.109	0.095
00923	1.116	0.088
00924	1.112	0.094
00925	1.106	0.097
00926	1.100	0.114
00927	1.084	0.123
00928	1.083	0.136
00929	1.068	0.129
00930	1.040	0.135
00931	1.025	0.127
00932	1.022	0.142
00933	1.008	0.148
00934	1.001	0.163
00935	0.991	0.163
00936	0.978	0.162
00937	0.983	0.174
00938	0.993	0.174
00939	0.998	0.184
00940	0.997	0.189
00941	0.986	0.196
00942	0.997	0.203
00943	0.996	0.217
00944	1.016	0.209
00945	1.028	0.161
00946	1.037	0.154
00947	1.063	0.145
00948	1.049	0.163
00949	1.048	0.154
00950	1.051	0.155
00951	1.058	0.164
00952	1.073	0.169
00953	1.066	0.159
00954	1.034	0.170
00955	1.069	0.159
00956	1.006	0.146
00957	1.023	0.152
00958	0.976	0.137
00959	0.948	0.132
00960	0.860	0.137
00961	0.778	0.143
00962	0.743	0.120
00963	0.670	0.125
00964	0.667	0.140
00965	0.597	0.141
00966	0.557	0.138
00967	0.513	0.137
00968	0.496	0.143
00969	0.460	0.138
00970	0.449	0.142
00971	0.425	0.155
00972	0.430	0.163
00973	0.422	0.173
00974	0.404	0.173
00975	0.405	0.220
00976	0.391	0.245
00977	0.380	0.247
00978	0.366	0.272
00979	0.366	0.278
00980	0.364	0.298
00981	0.373	0.296
00982	0.354	0.287
00983	0.354	0.290
00984	0.368	0.187
00985	0.424	0.180
00986	0.469	0.189
00987	0.511	0.183
00988	0.590	0.175
00989	0.592	0.179
00990	0.621	0.172
00991	0.661	0.163
00992	0.663	0.178
00993	0.645	0.163
00994	0.647	0.172
00995	0.651	0.173
00996	0.640	0.154
00997	0.625	0.177
00998	0.616	0.158
00999	0.626	0.156
01000	0.656	0.154
01001	0.676	0.158
01002	0.658	0.155
01003	0.708	0.158
01004	0.747	0.147
01005	0.784	0.151
01006	0.790	0.151
01007	0.805	0.134
01008	0.820	0.128
01009	0.841	0.120
01010	0.860	0.131
01011	0.851	0.145
01012	0.856	0.179
01013	0.815	0.200
01014	0.787	0.223
01015	0.742	0.250
01016	0.716	0.268
01017	0.680	0.312
01018	0.668	0.327
01019	0.652	0.342
01020	0.665	0.331
01021	0.655	0.336
01022	0.651	0.336
01023	0.628	0.338
01024	0.609	0.333
01025	0.593	0.306
01026	0.586	0.304
01027	0.571	0.298
01028	0.568	0.296
01029	0.562	0.281
01030	0.546	0.274
01031	0.561	0.209
01032	0.569	0.194
01033	0.580	0.183
01034	0.567	0.189
01035	0.578	0.199
01036	0.577	0.204
01037	0.562	0.206
01038	0.559	0.205
01039	0.556	0.217
01040	0.526	0.216
01041	0.508	0.215
01042	0.506	0.213
01043	0.479	0.199
01044	0.458	0.192
01045	0.409	0.176
01046	0.395	0.184
01047	0.380	0.197
01048	0.315	0.201
01049	0.292	0.221
01050	0.246	0.236
01051	0.210	0.262
01052	0.182	0.287
01053	0.155	0.271
01054	0.128	0.287
01055	0.107	0.292
01056	0.090	0.292
01057	0.076	0.298
01058	0.070	0.311
01059	0.071	0.208
01060	0.072	0.192
01061	0.078	0.196
01062	0.075	0.189
01063	0.082	0.194
01064	0.092	0.196
01065	0.092	0.180
01066	0.108	0.165
01067	0.108	0.162
01068	0.134	0.126
01069	0.155	0.135
01070	0.158	0.157
01071	0.231	0.152
01072	0.278	0.179
01073	0.271	0.186
01074	0.314	0.186
01075	0.397	0.192
01076	0.315	0.183
01077	0.434	0.157
01078	0.436	0.155
01079	0.403	0.141
01080	0.437	0.141
01081	0.469	0.148
01082	0.441	0.165
01083	0.501	0.157
01084	0.535	0.176
01085	0.495	0.163
01086	0.538	0.173
01087	0.503	0.164
01088	0.529	0.180
01089	0.562	0.168
01090	0.551	0.174
01091	0.556	0.176
01092	0.525	0.175
01093	0.545	0.184
01094	0.529	0.213
01095	0.527	0.234
01096	0.494	0.248
01097	0.434	0.284
01098	0.427	0.288
01099	0.160	0.296
01100	0.117	0.273
01101	0.111	0.272
01102	0.109	0.266
01103	0.101	0.257
01104	0.101	0.232
01105	0.121	0.199
01106	0.128	0.177
